Distance_(cm),Gray_Value
0.00000,49.000
0.00667,49.000
0.01334,47.127
0.02000,47.000
0.02667,47.006
0.03334,47.758
0.04001,48.510
0.04667,49.261
0.05334,50.000
0.06001,50.000
0.06668,47.955
0.07335,47.000
0.08001,47.618
0.08668,48.586
0.09335,49.554
0.10002,51.045
0.10668,52.000
0.11335,52.459
0.12002,52.146
0.12669,51.000
0.13336,51.000
0.14002,51.000
0.14669,51.000
0.15336,51.000
0.16003,51.000
0.16669,51.000
0.17336,50.312
0.18003,47.000
0.18670,47.000
0.19337,47.000
0.20003,47.000
0.20670,47.000
0.21337,47.000
0.22004,47.000
0.22670,47.000
0.23337,49.656
0.24004,49.956
0.24671,49.904
0.25337,51.643
0.26004,55.030
0.26671,60.307
0.27338,63.726
0.28005,66.401
0.28671,63.945
0.29338,61.476
0.30005,60.212
0.30672,58.143
0.31338,55.570
0.32005,52.383
0.32672,50.196
0.33339,49.083
0.34006,47.578
0.34672,45.627
0.35339,47.186
0.36006,49.414
0.36673,52.370
0.37339,54.813
0.38006,57.305
0.38673,59.218
0.39340,61.562
0.40007,71.322
0.40673,70.369
0.41340,67.981
0.42007,63.413
0.42674,58.561
0.43340,52.767
0.44007,47.564
0.44674,44.262
0.45341,44.312
0.46008,45.297
0.46674,44.473
0.47341,40.758
0.48008,38.549
0.48675,39.975
0.49341,43.377
0.50008,46.415
0.50675,48.625
0.51342,49.969
0.52009,57.189
0.52675,68.855
0.53342,79.337
0.54009,85.436
0.54676,83.438
0.55342,78.080
0.56009,71.814
0.56676,68.290
0.57343,69.343
0.58010,61.501
0.58676,49.890
0.59343,41.208
0.60010,38.002
0.60677,38.841
0.61343,40.318
0.62010,34.406
0.62677,35.131
0.63344,37.075
0.64011,38.570
0.64677,41.337
0.65344,43.376
0.66011,44.963
0.66678,48.081
0.67344,60.083
0.68011,74.059
0.68678,89.497
0.69345,101.525
0.70012,100.501
0.70678,93.517
0.71345,84.072
0.72012,76.609
0.72679,60.458
0.73345,48.129
0.74012,47.587
0.74679,45.619
0.75346,43.372
0.76013,42.044
0.76679,42.705
0.77346,44.425
0.78013,48.380
0.78680,55.523
0.79346,56.530
0.80013,57.059
0.80680,57.962
0.81347,60.792
0.82013,65.133
0.82680,69.726
0.83347,74.015
0.84014,57.773
0.84681,57.740
0.85347,55.811
0.86014,53.315
0.86681,50.834
0.87348,48.152
0.88014,44.865
0.88681,44.775
0.89348,46.725
0.90015,47.080
0.90682,45.837
0.91348,45.012
0.92015,45.751
0.92682,48.053
0.93349,51.007
0.94015,53.624
0.94682,54.117
0.95349,53.867
0.96016,53.892
0.96683,53.926
0.97349,53.960
0.98016,53.712
0.98683,52.932
0.99350,52.983
1.00016,52.725
1.00683,48.079
1.01350,47.023
1.02017,46.873
1.02684,46.000
1.03350,45.936
1.04017,45.000
1.04684,45.000
1.05351,44.032
1.06017,48.682
1.06684,49.000
1.07351,49.000
1.08018,49.000
1.08685,49.000
1.09351,49.000
1.10018,49.000
1.10685,49.000
1.11352,49.110
1.12018,49.000
1.12685,49.000
1.13352,49.000
1.14019,49.000
1.14686,49.000
1.15352,49.000
1.16019,49.000
1.16686,47.862
1.17353,46.333
1.18019,46.696
1.18686,47.333
1.19353,47.633
1.20020,48.333
1.20687,48.726
1.21353,50.000
1.22020,50.203
1.22687,51.445
1.23354,52.174
1.24020,53.971
1.24687,55.561
1.25354,56.779
1.26021,57.998
1.26688,59.533
1.27354,59.851
1.28021,57.356
1.28688,57.000
1.29355,57.000
1.30021,57.000
1.30688,56.241
1.31355,52.484
1.32022,47.156
1.32688,41.493
1.33355,50.417
1.34022,47.368
1.34689,40.475
1.35356,48.424
1.36022,59.356
1.36689,60.768
1.37356,62.732
1.38023,77.237
1.38689,96.857
1.39356,109.191
1.40023,109.623
1.40690,105.283
1.41357,95.309
1.42023,81.608
1.42690,66.174
1.43357,53.218
1.44024,46.639
1.44690,44.637
1.45357,43.542
1.46024,40.239
1.46691,37.898
1.47358,42.445
1.48024,56.835
1.48691,79.387
1.49358,98.672
1.50025,136.014
1.50691,147.643
1.51358,153.628
1.52025,158.709
1.52692,162.405
1.53359,160.222
1.54025,155.351
1.54692,153.006
1.55359,130.038
1.56026,105.297
1.56692,75.775
1.57359,45.125
1.58026,31.732
1.58693,32.002
1.59360,33.608
1.60026,30.725
1.60693,28.864
1.61360,30.880
1.62027,33.757
1.62693,52.178
1.63360,89.813
1.64027,138.074
1.64694,177.715
1.65361,189.629
1.66027,185.805
1.66694,167.088
1.67361,169.787
1.68028,174.503
1.68694,178.781
1.69361,177.555
1.70028,157.769
1.70695,118.675
1.71362,81.500
1.72028,62.632
1.72695,57.611
1.73362,52.267
1.74029,46.547
1.74695,44.821
1.75362,47.310
1.76029,49.509
1.76696,52.793
1.77363,73.436
1.78029,92.720
1.78696,101.183
1.79363,118.587
1.80030,141.086
1.80696,156.567
1.81363,154.146
1.82030,141.697
1.82697,123.748
1.83363,99.219
1.84030,97.902
1.84697,92.314
1.85364,82.021
1.86031,68.109
1.86697,54.179
1.87364,42.923
1.88031,35.326
1.88698,49.229
1.89364,49.554
1.90031,51.307
1.90698,53.198
1.91365,55.862
1.92032,58.919
1.92698,61.832
1.93365,64.183
1.94032,69.624
1.94699,73.493
1.95365,77.434
1.96032,81.349
1.96699,84.676
1.97366,84.376
1.98033,82.219
1.98699,80.526
1.99366,80.610
2.00033,78.688
2.00700,71.671
2.01366,61.575
2.02033,51.990
2.02700,45.856
2.03367,43.493
2.04034,44.476
2.04700,46.579
2.05367,49.318
2.06034,50.667
2.06701,50.921
2.07367,52.762
2.08034,53.730
2.08701,54.699
2.09368,55.667
2.10035,55.667
2.10701,52.701
2.11368,52.248
2.12035,51.998
2.12702,51.747
2.13368,51.497
2.14035,51.246
2.14702,50.996
2.15369,50.745
2.16036,48.226
2.16702,49.373
2.17369,50.525
2.18036,49.088
2.18703,46.253
2.19369,44.961
2.20036,45.210
2.20703,46.280
2.21370,47.695
2.22037,48.682
2.22703,49.924
2.23370,54.447
2.24037,68.483
2.24704,87.113
2.25370,101.518
2.26037,106.874
2.26704,106.977
2.27371,96.316
2.28038,77.915
2.28704,49.427
2.29371,34.167
2.30038,32.939
2.30705,35.883
2.31371,40.141
2.32038,42.824
2.32705,49.461
2.33372,70.269
2.34038,108.472
2.34705,148.599
2.35372,173.474
2.36039,178.904
2.36706,173.391
2.37372,159.509
2.38039,154.909
2.38706,153.756
2.39373,149.857
2.40039,146.158
2.40706,141.160
2.41373,135.959
2.42040,131.814
2.42707,130.086
2.43373,125.474
2.44040,116.246
2.44707,109.540
2.45374,103.026
2.46040,101.091
2.46707,107.172
2.47374,119.948
2.48041,133.328
2.48708,144.540
2.49374,161.123
2.50041,158.688
2.50708,150.753
2.51375,143.745
2.52041,138.403
2.52708,136.112
2.53375,136.736
2.54042,137.911
2.54709,143.149
2.55375,140.698
2.56042,136.886
2.56709,132.283
2.57376,127.768
2.58042,123.881
2.58709,120.619
2.59376,120.981
2.60043,122.346
2.60710,125.249
2.61376,129.450
2.62043,134.368
2.62710,138.807
2.63377,142.880
2.64043,146.732
2.64710,150.220
2.65377,152.071
2.66044,149.651
2.66711,144.972
2.67377,138.597
2.68044,132.858
2.68711,129.212
2.69378,129.571
2.70044,132.391
2.70711,132.378
2.71378,122.247
2.72045,120.885
2.72712,121.307
2.73378,122.421
2.74045,124.125
2.74712,125.247
2.75379,127.619
2.76045,130.211
2.76712,153.176
2.77379,161.770
2.78046,166.905
2.78713,170.975
2.79379,171.941
2.80046,165.323
2.80713,159.224
2.81380,154.470
2.82046,143.513
2.82713,136.358
2.83380,132.473
2.84047,129.354
2.84714,126.425
2.85380,125.139
2.86047,122.048
2.86714,116.712
2.87381,112.487
2.88047,114.795
2.88714,114.841
2.89381,118.159
2.90048,124.854
2.90714,134.212
2.91381,145.418
2.92048,155.473
2.92715,163.345
2.93382,167.675
2.94048,162.950
2.94715,160.649
2.95382,166.403
2.96049,176.099
2.96715,182.226
2.97382,179.394
2.98049,173.854
2.98716,134.883
2.99383,119.104
3.00049,118.768
3.00716,119.206
3.01383,119.789
3.02050,119.290
3.02716,119.606
3.03383,121.872
3.04050,126.726
3.04717,137.011
3.05384,151.183
3.06050,162.144
3.06717,166.163
3.07384,167.829
3.08051,172.884
3.08717,180.530
3.09384,176.068
3.10051,157.492
3.10718,151.216
3.11385,143.818
3.12051,138.250
3.12718,132.935
3.13385,127.605
3.14052,123.333
3.14718,120.599
3.15385,123.439
3.16052,122.183
3.16719,122.876
3.17386,125.380
3.18052,127.049
3.18719,128.798
3.19386,131.323
3.20053,133.815
3.20719,151.045
3.21386,159.911
3.22053,159.998
3.22720,162.060
3.23387,162.464
3.24053,161.963
3.24720,163.630
3.25387,165.987
3.26054,155.464
3.26720,138.110
3.27387,135.760
3.28054,132.001
3.28721,124.800
3.29388,118.721
3.30054,116.598
3.30721,118.966
3.31388,122.785
3.32055,128.066
3.32721,132.991
3.33388,140.539
3.34055,144.972
3.34722,144.941
3.35388,140.069
3.36055,135.597
3.36722,135.802
3.37389,147.737
3.38056,153.639
3.38722,158.191
3.39389,159.468
3.40056,157.096
3.40723,151.170
3.41389,141.370
3.42056,131.633
3.42723,125.297
3.43390,121.398
3.44057,119.867
3.44723,118.587
3.45390,118.614
3.46057,119.505
3.46724,121.166
3.47390,123.581
3.48057,122.946
3.48724,130.988
3.49391,162.873
3.50058,184.479
3.50724,186.006
3.51391,170.149
3.52058,148.643
3.52725,144.320
3.53391,150.024
3.54058,148.156
3.54725,148.653
3.55392,148.125
3.56059,145.871
3.56725,141.665
3.57392,135.377
3.58059,128.012
3.58726,122.916
3.59392,119.291
3.60059,123.759
3.60726,127.435
3.61393,129.779
3.62060,131.459
3.62726,134.821
3.63393,141.655
3.64060,148.737
3.64727,157.589
3.65393,161.675
3.66060,161.320
3.66727,161.065
3.67394,160.570
3.68061,157.711
3.68727,155.121
3.69394,153.092
3.70061,149.719
3.70728,144.917
3.71394,142.263
3.72061,138.599
3.72728,133.109
3.73395,125.095
3.74062,119.115
3.74728,116.661
3.75395,117.488
3.76062,112.232
3.76729,128.687
3.77395,151.990
3.78062,167.840
3.78729,175.572
3.79396,176.550
3.80063,176.664
3.80729,177.413
3.81396,174.657
3.82063,169.462
3.82730,162.190
3.83396,153.917
3.84063,146.972
3.84730,143.604
3.85397,145.074
3.86064,149.740
3.86730,120.378
3.87397,99.155
3.88064,97.736
3.88731,90.171
3.89397,72.871
3.90064,62.012
3.90731,63.187
3.91398,73.814
3.92064,101.431
3.92731,151.204
3.93398,167.306
3.94065,180.586
3.94732,183.391
3.95398,180.282
3.96065,172.633
3.96732,164.963
3.97399,154.302
3.98065,127.041
3.98732,117.074
3.99399,101.389
4.00066,82.714
4.00733,62.778
4.01399,45.216
4.02066,33.185
4.02733,28.064
4.03400,43.288
4.04066,51.004
4.04733,52.980
4.05400,55.577
4.06067,58.829
4.06734,62.210
4.07400,64.963
4.08067,67.548
4.08734,66.717
4.09401,66.926
4.10067,67.839
4.10734,65.520
4.11401,62.966
4.12068,61.030
4.12735,59.093
4.13401,57.412
4.14068,56.295
4.14735,54.936
4.15402,54.667
4.16068,54.610
4.16735,54.126
4.17402,53.993
4.18069,53.969
4.18736,53.111
4.19402,53.329
4.20069,53.544
4.20736,54.611
4.21403,55.633
4.22069,58.111
4.22736,62.500
4.23403,69.368
4.24070,77.996
4.24737,84.832
4.25403,110.701
4.26070,120.878
4.26737,114.732
4.27404,105.048
4.28070,93.409
4.28737,81.997
4.29404,76.404
4.30071,77.271
4.30737,73.577
4.31404,61.687
4.32071,58.394
4.32738,53.891
4.33405,49.702
4.34071,47.624
4.34738,47.257
4.35405,48.991
4.36072,54.171
4.36738,76.410
4.37405,109.737
4.38072,130.734
4.38739,156.970
4.39406,190.227
4.40072,187.189
4.40739,172.123
4.41406,174.731
4.42073,173.927
4.42739,162.880
4.43406,145.129
4.44073,125.393
4.44740,105.178
4.45407,84.862
4.46073,63.469
4.46740,44.913
4.47407,40.704
4.48074,52.462
4.48740,77.308
4.49407,107.963
4.50074,135.533
4.50741,154.059
4.51408,163.256
4.52074,164.658
4.52741,161.439
4.53408,157.686
4.54075,157.680
4.54741,158.422
4.55408,160.094
4.56075,160.532
4.56742,155.819
4.57409,146.319
4.58075,137.614
4.58742,118.332
4.59409,106.349
4.60076,82.476
4.60742,57.418
4.61409,43.121
4.62076,43.444
4.62743,52.150
4.63410,59.745
4.64076,74.498
4.64743,93.207
4.65410,121.261
4.66077,147.951
4.66743,162.189
4.67410,164.291
4.68077,161.014
4.68744,158.968
4.69411,152.709
4.70077,150.308
4.70744,158.173
4.71411,163.374
4.72078,157.898
4.72744,147.422
4.73411,131.138
4.74078,107.182
4.74745,81.219
4.75412,59.579
4.76078,54.593
4.76745,48.109
4.77412,44.799
4.78079,52.757
4.78745,77.792
4.79412,110.131
4.80079,136.173
4.80746,150.836
4.81413,151.313
4.82079,151.158
4.82746,150.288
4.83413,146.677
4.84080,141.989
4.84746,142.257
4.85413,145.567
4.86080,142.371
4.86747,130.010
4.87414,106.784
4.88080,79.489
4.88747,57.799
4.89414,47.454
4.90081,47.586
4.90747,53.387
4.91414,54.541
4.92081,54.391
4.92748,60.283
4.93414,70.520
4.94081,85.878
4.94748,105.143
4.95415,120.260
4.96082,127.404
4.96748,123.293
4.97415,109.503
4.98082,108.574
4.98749,105.544
4.99415,99.663
5.00082,92.235
5.00749,83.693
5.01416,76.957
5.02083,73.800
5.02749,58.127
5.03416,57.839
5.04083,55.174
5.04750,53.318
5.05416,52.380
5.06083,53.272
5.06750,55.036
5.07417,57.183
5.08084,57.904
5.08750,58.155
5.09417,57.960
5.10084,57.989
5.10751,58.240
5.11417,58.333
5.12084,58.333
5.12751,58.333
5.13418,56.263
5.14085,54.159
5.14751,54.410
5.15418,54.660
5.16085,54.911
5.16752,55.000
5.17418,55.000
5.18085,55.000
5.18752,54.331
5.19419,52.000
5.20086,52.159
5.20752,53.000
5.21419,53.096
5.22086,54.000
5.22753,54.032
5.23419,55.000
5.24086,55.000
5.24753,56.093
5.25420,56.797
5.26087,58.210
5.26753,59.747
5.27420,60.979
5.28087,62.197
5.28754,63.416
5.29420,64.579
5.30087,59.603
5.30754,56.350
5.31421,55.382
5.32088,54.414
5.32754,53.446
5.33421,52.478
5.34088,51.510
5.34755,50.541
5.35421,54.421
5.36088,60.066
5.36755,62.645
5.37422,67.384
5.38089,72.341
5.38755,77.687
5.39422,82.307
5.40089,85.694
5.40756,86.797
5.41422,86.259
5.42089,85.249
5.42756,82.016
5.43423,79.159
5.44090,74.995
5.44756,70.733
5.45423,68.510
5.46090,67.017
5.46757,60.224
5.47423,56.773
5.48090,51.951
5.48757,48.631
5.49424,48.111
5.50090,50.483
5.50757,54.559
5.51424,58.271
5.52091,64.598
5.52758,73.534
5.53424,84.232
5.54091,96.017
5.54758,106.972
5.55425,114.785
5.56091,119.867
5.56758,121.511
5.57425,113.340
5.58092,110.637
5.58759,116.132
5.59425,109.254
5.60092,91.849
5.60759,72.353
5.61426,58.973
5.62092,54.113
5.62759,54.650
5.63426,53.610
5.64093,55.239
5.64760,57.162
5.65426,61.925
5.66093,68.584
5.66760,79.389
5.67427,92.217
5.68093,103.321
5.68760,115.799
5.69427,122.302
5.70094,127.485
5.70761,131.998
5.71427,131.594
5.72094,126.232
5.72761,119.242
5.73428,114.773
5.74094,96.034
5.74761,79.400
5.75428,70.066
5.76095,58.599
5.76762,49.678
5.77428,46.833
5.78095,50.157
5.78762,51.624
5.79429,52.087
5.80095,59.751
5.80762,63.751
5.81429,69.499
5.82096,74.774
5.82763,76.620
5.83429,76.442
5.84096,76.856
5.84763,78.157
5.85430,89.364
5.86096,89.301
5.86763,86.602
5.87430,80.970
5.88097,73.928
5.88764,67.144
5.89430,62.617
5.90097,60.675
5.90764,58.094
5.91431,55.533
5.92097,52.841
5.92764,50.624
5.93431,49.344
5.94098,49.680
5.94764,51.185
5.95431,52.561
5.96098,56.687
5.96765,60.000
5.97432,60.000
5.98098,60.000
5.98765,60.000
5.99432,63.332
6.00099,66.684
6.00765,68.853
6.01432,67.264
6.02099,58.297
6.02766,57.982
6.03433,56.837
6.04099,56.005
6.04766,54.335
6.05433,52.748
6.06100,51.915
6.06766,50.333
6.07433,50.569
6.08100,50.817
6.08767,50.760
6.09434,50.985
6.10100,50.376
6.10767,50.061
6.11434,49.887
6.12101,49.987
6.12767,52.679
6.13434,53.822
6.14101,54.072
6.14768,54.323
6.15435,54.573
6.16101,54.824
6.16768,55.074
6.17435,55.325
6.18102,53.071
6.18768,50.333
6.19435,50.333
6.20102,50.333
6.20769,51.224
6.21436,51.660
6.22102,51.610
6.22769,51.329
6.23436,51.333
6.24103,51.333
6.24769,51.493
6.25436,52.461
6.26103,53.429
6.26770,54.461
6.27437,56.333
6.28103,56.333
