Distance_(cm)	Gray_Value
0.00000	47.000
0.00430	47.718
0.00859	49.281
0.01289	49.333
0.01719	49.333
0.02148	49.333
0.02578	49.333
0.03008	49.333
0.03438	49.333
0.03867	49.333
0.04297	49.333
0.04727	49.333
0.05156	49.333
0.05586	49.333
0.06016	49.333
0.06445	49.333
0.06875	49.333
0.07305	49.333
0.07734	49.175
0.08164	49.000
0.08594	49.000
0.09024	49.000
0.09453	49.000
0.09883	49.000
0.10313	49.000
0.10742	49.000
0.11172	49.243
0.11602	50.000
0.12031	50.000
0.12461	50.000
0.12891	50.000
0.13321	50.000
0.13750	50.000
0.14180	50.000
0.14610	49.846
0.15039	49.107
0.15469	49.576
0.15899	50.055
0.16328	50.333
0.16758	50.333
0.17188	50.333
0.17617	50.333
0.18047	50.333
0.18477	50.333
0.18907	50.333
0.19336	50.333
0.19766	50.333
0.20196	50.333
0.20625	50.333
0.21055	50.333
0.21485	50.333
0.21914	51.362
0.22344	52.333
0.22774	52.790
0.23203	53.333
0.23633	53.731
0.24063	54.702
0.24493	55.333
0.24922	55.333
0.25352	55.933
0.25782	57.702
0.26211	57.942
0.26641	58.181
0.27071	58.333
0.27500	58.333
0.27930	58.333
0.28360	58.333
0.28790	58.051
0.29219	54.049
0.29649	53.809
0.30079	53.570
0.30508	53.333
0.30938	53.333
0.31368	53.333
0.31797	53.333
0.32227	53.333
0.32657	54.120
0.33086	54.333
0.33516	54.333
0.33946	54.333
0.34376	54.333
0.34805	54.333
0.35235	54.333
0.35665	54.333
0.36094	54.462
0.36524	55.045
0.36954	55.524
0.37383	56.003
0.37813	56.408
0.38243	56.647
0.38672	56.887
0.39102	57.126
0.39532	58.337
0.39962	60.877
0.40391	61.356
0.40821	61.835
0.41251	62.314
0.41680	62.563
0.42110	62.803
0.42540	63.042
0.42969	62.932
0.43399	59.849
0.43829	60.013
0.44259	60.000
0.44688	59.107
0.45118	57.441
0.45548	56.421
0.45977	55.450
0.46407	54.479
0.46837	60.128
0.47266	61.333
0.47696	62.100
0.48126	63.071
0.48555	64.042
0.48985	65.693
0.49415	66.333
0.49845	66.955
0.50274	63.013
0.50704	60.518
0.51134	60.997
0.51563	61.476
0.51993	61.955
0.52423	62.217
0.52852	62.456
0.53282	62.696
0.53712	65.021
0.54141	69.350
0.54571	69.828
0.55001	70.307
0.55431	70.786
0.55860	71.265
0.56290	71.744
0.56720	72.223
0.57149	72.342
0.57579	70.000
0.58009	70.000
0.58438	70.000
0.58868	70.000
0.59298	69.951
0.59728	69.712
0.60157	69.472
0.60587	69.233
0.61017	72.443
0.61446	72.508
0.61876	71.223
0.62306	70.550
0.62735	69.324
0.63165	68.446
0.63595	67.286
0.64024	66.634
0.64454	61.268
0.64884	58.172
0.65314	57.932
0.65743	57.693
0.66173	57.453
0.66603	57.214
0.67032	56.974
0.67462	56.735
0.67892	59.217
0.68321	63.333
0.68751	63.333
0.69181	63.333
0.69610	63.333
0.70040	63.333
0.70470	63.333
0.70900	63.333
0.71329	62.343
0.71759	57.197
0.72189	56.100
0.72618	55.820
0.73048	55.333
0.73478	55.332
0.73907	55.333
0.74337	55.333
0.74767	55.333
0.75197	54.430
0.75626	54.333
0.76056	54.333
0.76486	54.333
0.76915	54.333
0.77345	54.333
0.77775	54.333
0.78204	54.333
0.78634	52.770
0.79064	52.000
0.79493	52.000
0.79923	52.000
0.80353	52.000
0.80783	52.000
0.81212	52.000
0.81642	52.000
0.82072	52.000
0.82501	52.000
0.82931	52.000
0.83361	52.000
0.83790	52.000
0.84220	52.000
0.84650	52.000
0.85079	52.000
0.85509	51.592
0.85939	50.000
0.86369	50.000
0.86798	50.000
0.87228	50.000
0.87658	50.000
0.88087	50.000
0.88517	50.000
0.88947	50.000
0.89376	50.942
0.89806	51.000
0.90236	51.000
0.90666	51.000
0.91095	51.000
0.91525	51.000
0.91955	51.000
0.92384	51.000
0.92814	50.291
0.93244	50.000
0.93673	50.000
0.94103	50.000
0.94533	50.000
0.94962	50.000
0.95392	50.000
0.95822	50.000
0.96252	50.000
0.96681	50.000
0.97111	50.000
0.97541	50.000
0.97970	50.000
0.98400	50.000
0.98830	50.000
0.99259	50.000
0.99689	49.757
1.00119	49.000
1.00548	49.000
1.00978	49.000
1.01408	49.000
1.01838	49.000
1.02267	49.000
1.02697	49.000
1.03127	49.019
1.03556	50.961
1.03986	51.000
1.04416	51.000
1.04845	51.000
1.05275	51.000
1.05705	51.000
1.06135	51.000
1.06564	51.000
1.06994	50.252
1.07424	50.000
1.07853	50.000
1.08283	50.000
1.08713	50.000
1.09142	50.000
1.09572	50.000
1.10002	50.000
1.10431	50.515
1.10861	51.000
1.11291	51.000
1.11721	51.000
1.12150	51.000
1.12580	51.000
1.13010	51.000
1.13439	51.000
1.13869	52.126
1.14299	55.000
1.14728	55.210
1.15158	56.433
1.15588	57.987
1.16017	61.187
1.16447	64.493
1.16877	66.939
1.17307	67.688
1.17736	69.019
1.18166	69.990
1.18596	70.223
1.19025	70.929
1.19455	71.660
1.19885	73.104
1.20314	74.123
1.20744	74.039
1.21174	70.812
1.21604	70.000
1.22033	69.270
1.22463	68.301
1.22893	67.330
1.23322	65.718
1.23752	65.000
1.24182	64.417
1.24611	68.676
1.25041	73.214
1.25471	74.424
1.25900	75.634
1.26330	76.845
1.26760	78.055
1.27190	79.265
1.27619	80.432
1.28049	79.836
1.28479	77.314
1.28908	76.361
1.29338	74.871
1.29768	73.749
1.30197	72.564
1.30627	72.680
1.31057	73.222
1.31486	72.765
1.31916	74.392
1.32346	75.362
1.32776	76.333
1.33205	77.145
1.33635	78.119
1.34065	79.517
1.34494	80.550
1.34924	80.469
1.35354	71.838
1.35783	70.632
1.36213	70.916
1.36643	71.324
1.37073	71.883
1.37502	72.336
1.37932	72.937
1.38362	73.263
1.38791	79.938
1.39221	85.033
1.39651	85.802
1.40080	86.547
1.40510	87.265
1.40940	87.984
1.41369	88.702
1.41799	89.492
1.42229	87.803
1.42659	82.847
1.43088	79.319
1.43518	75.184
1.43948	76.831
1.44377	81.608
1.44807	87.021
1.45237	91.506
1.45666	91.937
1.46096	87.410
1.46526	91.750
1.46955	98.082
1.47385	104.250
1.47815	106.751
1.48245	106.708
1.48674	105.157
1.49104	104.322
1.49534	97.841
1.49963	95.702
1.50393	94.517
1.50823	92.068
1.51252	89.125
1.51682	86.661
1.52112	84.764
1.52542	84.172
1.52971	89.352
1.53401	91.954
1.53831	91.907
1.54260	91.738
1.54690	91.579
1.55120	91.150
1.55549	90.795
1.55979	90.926
1.56409	92.729
1.56838	95.750
1.57268	95.771
1.57698	95.136
1.58128	94.292
1.58557	93.441
1.58987	93.492
1.59417	94.345
1.59846	94.704
1.60276	90.645
1.60706	90.649
1.61135	90.549
1.61565	89.969
1.61995	89.374
1.62424	89.180
1.62854	89.028
1.63284	89.333
1.63714	87.308
1.64143	85.977
1.64573	83.078
1.65003	79.131
1.65432	75.564
1.65862	71.566
1.66292	68.369
1.66721	66.406
1.67151	66.724
1.67581	67.269
1.68010	66.775
1.68440	66.520
1.68870	66.067
1.69300	65.808
1.69729	65.534
1.70159	65.168
1.70589	64.918
1.71018	64.321
1.71448	63.621
1.71878	62.650
1.72307	61.712
1.72737	60.981
1.73167	60.249
1.73597	59.751
1.74026	59.786
1.74456	59.000
1.74886	58.854
1.75315	58.000
1.75745	57.913
1.76175	56.942
1.76604	56.000
1.77034	56.000
1.77464	55.353
1.77893	54.078
1.78323	54.000
1.78753	53.117
1.79183	53.000
1.79612	52.175
1.80042	51.204
1.80472	51.000
1.80901	51.000
1.81331	50.291
1.81761	50.000
1.82190	50.000
1.82620	50.000
1.83050	50.000
1.83479	50.000
1.83909	50.000
1.84339	50.000
1.84769	50.000
1.85198	50.000
1.85628	50.000
1.86058	50.000
1.86487	50.000
1.86917	50.000
1.87347	50.000
1.87776	50.000
1.88206	49.974
1.88636	50.000
1.89066	50.000
1.89495	50.000
1.89925	50.000
1.90355	50.000
1.90784	50.000
1.91214	50.000
1.91644	49.990
1.92073	49.019
1.92503	49.000
1.92933	49.000
1.93362	49.000
1.93792	49.000
1.94222	49.000
1.94652	49.000
1.95081	49.000
1.95511	49.748
1.95941	50.000
1.96370	50.000
1.96800	50.000
1.97230	50.000
1.97659	50.000
1.98089	50.000
1.98519	50.000
1.98948	50.515
1.99378	51.000
1.99808	51.000
2.00238	51.000
2.00667	51.000
2.01097	51.029
2.01527	51.317
2.01956	51.730
2.02386	52.874
2.02816	54.252
2.03245	55.000
2.03675	55.388
2.04105	57.165
2.04535	58.136
2.04964	59.107
2.05394	60.000
2.05824	60.238
2.06253	64.449
2.06683	64.753
2.07113	65.644
2.07542	65.922
2.07972	66.996
2.08402	67.427
2.08831	67.680
2.09261	67.629
2.09691	74.239
2.10121	77.515
2.10550	80.184
2.10980	82.808
2.11410	84.378
2.11839	85.065
2.12269	84.471
2.12699	84.155
2.13128	76.293
2.13558	68.633
2.13988	65.939
2.14418	63.158
2.14847	62.758
2.15277	65.674
2.15707	71.400
2.16136	75.259
2.16566	76.854
2.16996	82.447
2.17425	92.190
2.17855	103.816
2.18285	115.478
2.18714	124.213
2.19144	130.346
2.19574	132.928
2.20004	136.147
2.20433	144.423
2.20863	130.785
2.21293	109.333
2.21722	92.224
2.22152	88.160
2.22582	98.142
2.23011	115.981
2.23441	130.187
2.23871	141.696
2.24300	142.500
2.24730	140.496
2.25160	137.282
2.25590	136.862
2.26019	144.532
2.26449	160.502
2.26879	174.657
2.27308	179.147
2.27738	179.262
2.28168	176.559
2.28597	166.194
2.29027	149.613
2.29457	136.416
2.29886	133.852
2.30316	137.897
2.30746	139.503
2.31176	134.917
2.31605	134.896
2.32035	141.065
2.32465	150.645
2.32894	163.032
2.33324	175.659
2.33754	184.580
2.34183	188.236
2.34613	191.405
2.35043	181.527
2.35473	164.186
2.35902	146.592
2.36332	136.156
2.36762	133.030
2.37191	133.961
2.37621	135.929
2.38051	147.159
2.38480	153.138
2.38910	159.657
2.39340	166.875
2.39769	170.724
2.40199	172.008
2.40629	171.636
2.41059	170.721
2.41488	165.514
2.41918	162.615
2.42348	160.955
2.42777	158.319
2.43207	155.246
2.43637	152.698
2.44066	150.840
2.44496	149.421
2.44926	153.343
2.45355	161.248
2.45785	160.992
2.46215	160.395
2.46645	159.823
2.47074	159.226
2.47504	158.665
2.47934	158.508
2.48363	160.203
2.48793	164.297
2.49223	162.000
2.49652	161.948
2.50082	161.173
2.50512	161.853
2.50942	163.110
2.51371	163.544
2.51801	162.483
2.52231	157.333
2.52660	157.641
2.53090	160.770
2.53520	163.552
2.53949	165.331
2.54379	164.761
2.54809	161.679
2.55238	155.981
2.55668	143.003
2.56098	136.230
2.56528	134.312
2.56957	132.731
2.57387	130.941
2.57817	128.437
2.58246	125.306
2.58676	121.529
2.59106	128.056
2.59535	136.838
2.59965	139.902
2.60395	149.619
2.60824	157.075
2.61254	158.921
2.61684	155.445
2.62114	150.359
2.62543	146.769
2.62973	143.555
2.63403	145.597
2.63832	147.848
2.64262	146.804
2.64692	144.369
2.65121	140.716
2.65551	137.667
2.65981	136.041
2.66411	119.123
2.66840	114.157
2.67270	110.468
2.67700	107.378
2.68129	108.892
2.68559	112.710
2.68989	118.073
2.69418	122.494
2.69848	126.863
2.70278	129.211
2.70707	130.752
2.71137	131.752
2.71567	130.108
2.71997	125.029
2.72426	117.398
2.72856	110.302
2.73286	110.960
2.73715	109.798
2.74145	103.771
2.74575	96.700
2.75004	93.289
2.75434	93.997
2.75864	96.795
2.76293	100.379
2.76723	103.001
2.77153	104.793
2.77583	105.250
2.78012	104.917
2.78442	102.773
2.78872	98.747
2.79301	94.150
2.79731	90.458
2.80161	87.439
2.80590	74.657
2.81020	73.670
2.81450	71.401
2.81880	69.658
2.82309	67.945
2.82739	65.408
2.83169	64.346
2.83598	63.615
2.84028	73.572
2.84458	77.887
2.84887	77.864
2.85317	77.345
2.85747	75.823
2.86176	74.762
2.86606	74.162
2.87036	73.974
2.87466	69.133
2.87895	63.821
2.88325	61.514
2.88755	60.204
2.89184	63.699
2.89614	70.884
2.90044	80.261
2.90473	88.781
2.90903	95.365
2.91333	99.255
2.91762	99.502
2.92192	98.234
2.92622	95.830
2.93052	93.225
2.93481	91.965
2.93911	91.371
2.94341	91.134
2.94770	82.940
2.95200	87.011
2.95630	93.721
2.96059	102.925
2.96489	112.149
2.96919	119.590
2.97348	124.526
2.97778	128.101
2.98208	137.428
2.98638	141.100
2.99067	143.029
2.99497	143.516
2.99927	143.172
3.00356	143.318
3.00786	144.005
3.01216	145.398
3.01645	136.476
3.02075	135.974
3.02505	146.863
3.02935	159.723
3.03364	170.092
3.03794	173.943
3.04224	175.512
3.04653	175.535
3.05083	178.104
3.05513	182.535
3.05942	175.601
3.06372	165.949
3.06802	155.280
3.07231	146.716
3.07661	139.216
3.08091	134.713
3.08521	130.086
3.08950	120.097
3.09380	118.530
3.09810	122.000
3.10239	135.431
3.10669	154.407
3.11099	168.631
3.11528	175.219
3.11958	177.965
3.12388	183.591
3.12818	185.163
3.13247	183.051
3.13677	176.350
3.14107	164.786
3.14536	148.975
3.14966	134.155
3.15396	123.735
3.15825	122.903
3.16255	124.081
3.16685	123.290
3.17114	126.184
3.17544	136.334
3.17974	152.271
3.18404	162.015
3.18833	163.550
3.19263	158.723
3.19693	153.070
3.20122	154.303
3.20552	155.049
3.20982	154.249
3.21411	150.465
3.21841	144.369
3.22271	138.018
3.22700	132.691
3.23130	119.890
3.23560	116.273
3.23990	113.921
3.24419	116.747
3.24849	124.510
3.25279	139.573
3.25708	155.253
3.26138	165.293
3.26568	174.951
3.26997	174.026
3.27427	168.842
3.27857	161.211
3.28287	150.026
3.28716	135.940
3.29146	122.018
3.29576	112.262
3.30005	113.859
3.30435	115.612
3.30865	117.647
3.31294	127.715
3.31724	146.641
3.32154	163.686
3.32583	170.042
3.33013	169.552
3.33443	168.646
3.33873	167.724
3.34302	163.340
3.34732	157.226
3.35162	149.948
3.35591	140.770
3.36021	131.024
3.36451	121.706
3.36880	116.340
3.37310	119.552
3.37740	116.030
3.38169	115.411
3.38599	119.763
3.39029	131.406
3.39459	149.068
3.39888	167.907
3.40318	180.319
3.40748	181.653
3.41177	181.654
3.41607	178.124
3.42037	170.317
3.42466	156.964
3.42896	141.325
3.43326	127.972
3.43756	119.959
3.44185	125.183
3.44615	125.975
3.45045	122.287
3.45474	119.897
3.45904	121.100
3.46334	121.391
3.46763	116.965
3.47193	112.990
3.47623	118.567
3.48052	132.998
3.48482	148.016
3.48912	156.122
3.49342	151.987
3.49771	139.058
3.50201	123.508
3.50631	114.476
3.51060	115.570
3.51490	128.964
3.51920	127.003
3.52349	125.690
3.52779	127.581
3.53209	137.613
3.53638	155.078
3.54068	170.667
3.54498	182.176
3.54928	171.722
3.55357	166.359
3.55787	156.425
3.56217	143.394
3.56646	132.091
3.57076	125.983
3.57506	124.649
3.57935	125.682
3.58365	134.858
3.58795	135.115
3.59225	127.882
3.59654	130.723
3.60084	138.921
3.60514	144.188
3.60943	147.657
3.61373	150.076
3.61803	148.361
3.62232	145.320
3.62662	144.655
3.63092	143.399
3.63521	142.101
3.63951	140.142
3.64381	137.934
3.64811	135.949
3.65240	131.900
3.65670	124.378
3.66100	127.756
3.66529	129.487
3.66959	127.924
3.67389	127.000
3.67818	132.900
3.68248	146.262
3.68678	158.173
3.69107	165.113
3.69537	162.231
3.69967	156.332
3.70397	147.732
3.70826	136.559
3.71256	126.198
3.71686	118.531
3.72115	115.502
3.72545	121.474
3.72975	118.896
3.73404	121.726
3.73834	128.290
3.74264	126.212
3.74693	126.895
3.75123	142.647
3.75553	161.966
3.75983	173.994
3.76412	175.244
3.76842	167.389
3.77272	155.533
3.77701	143.482
3.78131	133.352
3.78561	125.720
3.78990	120.671
3.79420	119.444
3.79850	120.368
3.80280	120.633
3.80709	122.104
3.81139	126.811
3.81569	135.816
3.81998	146.906
3.82428	157.075
3.82858	164.586
3.83287	163.862
3.83717	159.806
3.84147	152.334
3.84576	144.241
3.85006	137.830
3.85436	136.354
3.85866	136.358
3.86295	137.178
3.86725	129.116
3.87155	125.543
3.87584	124.625
3.88014	125.425
3.88444	128.719
3.88873	135.002
3.89303	144.147
3.89733	150.859
3.90162	152.423
3.90592	149.867
3.91022	146.678
3.91452	143.263
3.91881	139.747
3.92311	136.781
3.92741	134.074
3.93170	131.751
3.93600	130.663
3.94030	129.972
3.94459	126.976
3.94889	123.625
3.95319	122.367
3.95749	122.221
3.96178	124.381
3.96608	127.012
3.97038	131.627
3.97467	152.737
3.97897	167.047
3.98327	168.667
3.98756	156.956
3.99186	156.533
3.99616	165.858
4.00045	166.359
4.00475	157.488
4.00905	151.691
4.01335	147.224
4.01764	140.874
4.02194	135.088
4.02624	132.754
4.03053	134.380
4.03483	136.954
4.03913	138.000
4.04342	136.037
4.04772	140.445
4.05202	152.245
4.05631	164.327
4.06061	170.682
4.06491	167.078
4.06921	156.707
4.07350	144.565
4.07780	134.146
4.08210	127.823
4.08639	123.422
4.09069	119.829
4.09499	119.365
4.09928	121.975
4.10358	126.365
4.10788	132.392
4.11217	141.455
4.11647	184.833
4.12077	186.642
4.12507	183.031
4.12936	173.174
4.13366	158.922
4.13796	142.003
4.14225	127.875
4.14655	119.876
4.15085	127.048
4.15514	133.504
4.15944	137.684
4.16374	133.562
4.16804	125.331
4.17233	124.017
4.17663	128.906
4.18093	132.195
4.18522	147.540
4.18952	153.519
4.19382	148.030
4.19811	140.806
4.20241	136.070
4.20671	134.918
4.21100	135.910
4.21530	137.388
4.21960	134.723
4.22390	130.562
4.22819	130.564
4.23249	130.428
4.23679	130.350
4.24108	130.377
4.24538	130.275
4.24968	130.838
4.25397	131.582
4.25827	128.990
4.26257	133.027
4.26687	136.918
4.27116	140.629
4.27546	144.056
4.27976	147.706
4.28405	149.086
4.28835	150.291
4.29265	140.869
4.29694	136.898
4.30124	135.503
4.30554	135.444
4.30983	133.146
4.31413	130.715
4.31843	128.336
4.32273	127.694
4.32702	135.886
4.33132	139.479
4.33562	138.659
4.33991	137.289
4.34421	135.081
4.34851	132.301
4.35280	130.021
4.35710	128.290
4.36140	125.215
4.36569	123.520
4.36999	123.595
4.37429	123.441
4.37859	123.373
4.38288	123.998
4.38718	124.766
4.39148	125.463
4.39577	127.217
4.40007	134.437
4.40437	135.521
4.40866	136.178
4.41296	135.946
4.41726	136.988
4.42156	136.981
4.42585	137.111
4.43015	136.253
4.43445	138.758
4.43874	138.505
4.44304	136.940
4.44734	134.773
4.45163	133.668
4.45593	132.309
4.46023	130.857
4.46452	129.086
4.46882	133.213
4.47312	136.172
4.47742	137.902
4.48171	139.837
4.48601	141.786
4.49031	142.964
4.49460	143.917
4.49890	144.801
4.50320	150.247
4.50749	154.374
4.51179	153.532
4.51609	153.213
4.52038	153.397
4.52468	153.501
4.52898	152.968
4.53328	152.273
4.53757	152.709
4.54187	157.713
4.54617	158.440
4.55046	159.041
4.55476	159.757
4.55906	160.531
4.56335	161.918
4.56765	163.012
4.57195	163.672
4.57625	154.954
4.58054	151.344
4.58484	148.201
4.58914	142.980
4.59343	138.919
4.59773	129.394
4.60203	120.126
4.60632	110.889
4.61062	112.880
4.61492	114.256
4.61921	112.599
4.62351	109.902
4.62781	107.203
4.63211	104.405
4.63640	101.833
4.64070	100.125
4.64500	95.802
4.64929	93.317
4.65359	96.249
4.65789	98.752
4.66218	98.829
4.66648	95.977
4.67078	90.665
4.67507	85.296
4.67937	79.870
4.68367	72.833
4.68797	71.055
4.69226	69.835
4.69656	67.994
4.70086	66.499
4.70515	64.865
4.70945	63.655
4.71375	62.356
4.71804	56.741
4.72234	56.145
4.72664	55.903
4.73094	54.731
4.73523	53.521
4.73953	53.315
4.74383	53.145
4.74812	53.589
4.75242	57.786
4.75672	58.000
4.76101	58.728
4.76531	59.000
4.76961	59.670
4.77390	60.641
4.77820	61.000
4.78250	61.000
4.78680	58.906
4.79109	57.490
4.79539	57.971
4.79969	58.697
4.80398	59.696
4.80828	60.427
4.81258	61.159
4.81687	61.307
4.82117	65.826
4.82547	77.073
4.82976	80.969
4.83406	86.421
4.83836	91.700
4.84266	95.244
4.84695	96.182
4.85125	95.099
4.85555	93.261
4.85984	87.762
4.86414	87.197
4.86844	88.667
4.87273	90.510
4.87703	93.598
4.88133	97.208
4.88562	101.641
4.88992	106.188
4.89422	118.235
4.89852	121.209
4.90281	121.805
4.90711	124.023
4.91141	129.336
4.91570	136.988
4.92000	145.269
4.92430	150.960
4.92859	159.713
4.93289	160.724
4.93719	151.607
4.94149	139.694
4.94578	127.331
4.95008	115.965
4.95438	106.973
4.95867	101.366
4.96297	98.185
4.96727	97.169
4.97156	102.275
4.97586	112.045
4.98016	126.757
4.98445	145.504
4.98875	165.201
4.99305	181.101
4.99735	188.677
5.00164	181.062
5.00594	178.777
5.01024	172.173
5.01453	162.749
5.01883	150.183
5.02313	137.743
5.02742	123.776
5.03172	115.525
5.03602	106.820
5.04032	107.744
5.04461	115.342
5.04891	134.709
5.05321	162.498
5.05750	184.897
5.06180	194.433
5.06610	195.854
5.07039	186.328
5.07469	177.443
5.07899	169.489
5.08328	161.646
5.08758	156.332
5.09188	154.925
5.09618	157.129
5.10047	160.469
5.10477	159.697
5.10907	162.455
5.11336	176.517
5.11766	184.153
5.12196	187.176
5.12625	187.567
5.13055	188.574
5.13485	190.685
5.13914	193.382
5.14344	195.465
5.14774	196.662
5.15204	195.113
5.15633	188.255
5.16063	178.042
5.16493	168.187
5.16922	161.121
5.17352	154.699
5.17782	144.098
5.18211	145.783
5.18641	149.932
5.19071	157.912
5.19500	168.092
5.19930	176.959
5.20360	183.372
5.20790	187.557
5.21219	190.846
5.21649	190.591
5.22079	187.253
5.22508	181.764
5.22938	174.279
5.23368	163.678
5.23797	153.135
5.24227	144.292
5.24657	140.117
5.25087	140.003
5.25516	138.074
5.25946	137.385
5.26376	140.503
5.26805	147.677
5.27235	158.209
5.27665	167.501
5.28094	173.164
5.28524	173.119
5.28954	175.259
5.29383	177.321
5.29813	176.903
5.30243	174.424
5.30673	166.769
5.31102	159.667
5.31532	151.850
5.31962	149.636
5.32391	148.211
5.32821	148.236
5.33251	148.282
5.33680	149.099
5.34110	149.675
5.34540	150.254
5.34970	150.062
5.35399	138.165
5.35829	133.094
5.36259	134.728
5.36688	137.091
5.37118	140.858
5.37548	144.126
5.37977	147.056
5.38407	148.488
5.38837	145.753
5.39266	142.859
5.39696	141.589
5.40126	139.475
5.40556	134.891
5.40985	128.457
5.41415	120.567
5.41845	113.231
5.42274	108.723
5.42704	108.763
5.43134	108.664
5.43563	108.572
5.43993	109.364
5.44423	110.097
5.44852	111.068
5.45282	112.000
5.45712	111.230
5.46142	102.540
5.46571	102.444
5.47001	102.438
5.47431	99.316
5.47860	96.068
5.48290	92.916
5.48720	89.764
5.49149	88.165
5.49579	89.945
5.50009	89.820
5.50438	88.929
5.50868	87.641
5.51298	86.661
5.51728	85.544
5.52157	84.443
5.52587	83.397
5.53017	82.295
5.53446	81.327
5.53876	80.369
5.54306	79.359
5.54735	78.495
5.55165	77.887
5.55595	77.016
5.56025	76.408
5.56454	75.665
5.56884	76.210
5.57314	75.907
5.57743	75.051
5.58173	74.752
5.58603	73.677
5.59032	72.721
5.59462	72.333
5.59892	72.049
5.60321	68.756
5.60751	66.144
5.61181	63.996
5.61611	61.398
5.62040	60.407
5.62470	59.912
5.62900	59.377
5.63329	59.333
5.63759	58.346
5.64189	57.893
5.64618	57.654
5.65048	57.414
5.65478	57.175
5.65907	56.935
5.66337	56.696
5.66767	56.456
5.67197	55.676
5.67626	55.333
5.68056	55.333
5.68486	55.333
5.68915	55.259
5.69345	55.019
5.69775	54.780
5.70204	54.540
5.70634	54.333
5.71064	54.333
5.71494	54.333
5.71923	54.333
5.72353	54.333
5.72783	54.104
5.73212	53.864
5.73642	53.625
5.74072	53.555
5.74501	54.019
5.74931	52.343
5.75361	50.667
5.75790	49.870
5.76220	50.284
5.76650	50.685
5.77080	51.290
5.77509	51.333
5.77939	58.779
5.78369	60.333
5.78798	60.333
5.79228	60.333
5.79658	60.333
5.80087	60.333
5.80517	60.333
5.80947	60.333
5.81377	57.372
5.81806	55.333
5.82236	55.333
5.82666	55.838
5.83095	56.809
5.83525	57.333
5.83955	57.751
5.84384	58.333
5.84814	59.388
5.85244	61.663
5.85673	62.935
5.86103	64.877
5.86533	67.036
5.86963	69.761
5.87392	71.702
5.87822	73.489
5.88252	73.450
5.88681	66.883
5.89111	65.343
5.89541	64.613
5.89970	64.339
5.90400	65.266
5.90830	65.319
5.91259	66.384
5.91689	66.233
5.92119	69.451
5.92549	70.589
5.92978	72.126
5.93408	73.828
5.93838	76.252
5.94267	78.379
5.94697	80.073
5.95127	80.677
5.95556	74.750
5.95986	69.598
5.96416	66.031
5.96845	63.174
5.97275	63.259
5.97705	66.317
5.98135	70.753
5.98564	75.603
5.98994	81.345
5.99424	87.418
5.99853	93.101
6.00283	100.570
6.00713	107.447
6.01142	111.506
6.01572	112.597
6.02002	111.400
6.02432	111.763
6.02861	122.052
6.03291	119.285
6.03721	114.726
6.04150	109.457
6.04580	103.113
6.05010	98.429
6.05439	95.337
6.05869	93.501
6.06299	89.711
6.06728	95.202
6.07158	105.192
6.07588	116.568
6.08018	125.604
6.08447	130.625
6.08877	132.584
6.09307	133.252
6.09736	133.375
6.10166	131.680
6.10596	126.879
6.11025	120.906
6.11455	114.272
6.11885	107.638
6.12314	102.014
6.12744	98.334
6.13174	98.424
6.13604	100.414
6.14033	100.984
6.14463	102.580
6.14893	105.061
6.15322	107.876
6.15752	110.346
6.16182	111.913
6.16611	111.095
6.17041	103.878
6.17471	103.553
6.17901	100.900
6.18330	97.488
6.18760	93.416
6.19190	89.693
6.19619	87.333
6.20049	85.098
6.20479	84.038
6.20908	85.214
6.21338	87.518
6.21768	90.796
6.22197	94.125
6.22627	97.498
6.23057	99.560
6.23487	100.960
6.23916	102.661
6.24346	102.955
6.24776	100.643
6.25205	97.525
6.25635	93.956
6.26065	90.431
6.26494	87.002
6.26924	84.314
6.27354	79.218
6.27783	75.000
6.28213	74.583
6.28643	74.000
6.29073	73.593
6.29502	72.947
6.29932	72.580
6.30362	71.667
6.30791	74.068
6.31221	81.586
6.31651	80.836
6.32080	80.035
6.32510	79.122
6.32940	79.725
6.33369	81.303
6.33799	80.861
6.34229	80.299
6.34659	71.779
6.35088	71.379
6.35518	71.333
6.35948	71.333
6.36377	71.333
6.36807	71.333
6.37237	71.181
6.37666	70.942
6.38096	73.876
6.38526	74.487
6.38956	74.257
6.39385	73.324
6.39815	72.744
6.40245	71.903
6.40674	71.294
6.41104	71.026
6.41534	67.466
6.41963	64.333
6.42393	63.877
6.42823	63.333
6.43252	62.935
6.43682	62.333
6.44112	61.994
6.44542	61.333
6.44971	64.149
6.45401	71.258
6.45831	71.052
6.46260	69.812
6.46690	68.817
6.47120	68.241
6.47549	68.122
6.47979	68.194
6.48409	67.488
6.48839	58.333
6.49268	58.333
6.49698	58.333
6.50128	58.333
6.50557	58.333
6.50987	58.333
6.51417	58.333
6.51846	58.333
6.52276	61.112
6.52706	62.107
6.53135	62.346
6.53565	62.586
6.53995	62.825
6.54425	63.065
6.54854	63.304
6.55284	63.544
6.55714	59.412
6.56143	55.644
6.56573	54.909
6.57003	54.165
6.57432	53.489
6.57862	52.278
6.58292	51.447
6.58721	51.289
6.59151	52.366
6.59581	55.333
6.60011	55.333
6.60440	55.586
6.60870	56.304
6.61300	57.023
6.61729	57.741
6.62159	58.333
6.62589	57.809
6.63018	52.333
6.63448	52.333
6.63878	52.333
6.64307	52.573
6.64737	52.812
6.65167	53.052
6.65597	53.291
6.66026	53.531
6.66456	55.885
6.66886	56.333
6.67315	56.333
6.67745	56.333
6.68175	56.333
6.68604	56.333
6.69034	56.333
6.69464	56.333
6.69894	55.567
6.70323	55.518
6.70753	55.997
6.71183	56.333
6.71612	56.333
6.72042	56.333
6.72472	56.333
6.72901	56.362
6.73331	56.602
6.73761	56.841
6.74190	57.081
6.74620	57.320
6.75050	57.560
6.75480	57.799
6.75909	58.039
6.76339	58.278
6.76769	58.242
6.77198	56.333
6.77628	56.333
6.78058	56.333
6.78487	56.476
6.78917	56.715
6.79347	56.955
6.79777	57.194
6.80206	57.333
6.80636	59.649
6.81066	60.492
6.81495	60.971
6.81925	61.392
6.82355	61.631
6.82784	61.871
6.83214	62.110
6.83644	62.350
6.84073	60.065
6.84503	58.828
6.84933	59.068
6.85363	59.307
6.85792	59.547
6.86222	59.786
6.86652	60.026
6.87081	60.265
6.87511	60.903
6.87941	61.744
6.88370	61.984
6.88800	62.223
6.89230	63.239
6.89659	64.916
6.90089	66.592
6.90519	68.269
6.90949	68.508
6.91378	64.333
6.91808	64.333
6.92238	64.333
6.92667	64.333
6.93097	64.333
6.93527	64.333
6.93956	64.333
6.94386	64.333
6.94816	67.261
6.95246	67.816
6.95675	68.055
6.96105	68.295
6.96535	68.534
6.96964	68.773
6.97394	69.013
6.97824	69.252
6.98253	66.195
6.98683	64.091
6.99113	63.749
6.99542	62.994
6.99972	61.896
7.00402	61.165
7.00832	60.434
7.01261	60.168
7.01691	62.405
7.02121	65.314
7.02550	65.553
7.02980	65.793
7.03410	66.345
7.03839	69.160
7.04269	72.440
7.04699	76.011
7.05128	77.793
7.05558	72.333
7.05988	72.333
7.06418	72.333
7.06847	72.333
7.07277	72.521
7.07707	72.761
7.08136	73.000
7.08566	73.239
7.08996	68.377
7.09425	68.907
7.09855	69.500
7.10285	69.915
7.10714	70.920
7.11144	71.481
7.11574	72.634
7.12004	73.254
7.12433	69.924
7.12863	68.127
7.13293	68.270
7.13722	68.423
7.14152	68.439
7.14582	67.955
7.15011	67.997
7.15441	68.103
7.15871	67.649
7.16301	67.630
7.16730	67.917
7.17160	68.313
7.17590	68.493
7.18019	70.158
7.18449	72.304
7.18879	75.039
7.19308	78.687
7.19738	84.252
7.20168	83.452
7.20597	81.962
7.21027	79.825
7.21457	77.230
7.21887	75.528
7.22316	73.864
7.22746	73.092
7.23176	68.527
7.23605	68.909
7.24035	68.953
7.24465	68.949
7.24894	68.489
7.25324	68.866
7.25754	68.621
7.26184	69.175
7.26613	72.883
7.27043	73.689
7.27473	72.278
7.27902	70.712
7.28332	69.200
7.28762	67.120
7.29191	65.324
7.29621	64.600
7.30051	63.689
7.30480	63.000
7.30910	62.708
7.31340	62.343
7.31770	61.936
7.32199	62.281
7.32629	63.747
7.33059	65.315
7.33488	66.159
7.33918	63.757
7.34348	63.052
7.34777	62.320
7.35207	61.465
7.35637	59.864
7.36066	59.126
7.36496	58.472
7.36926	58.583
7.37356	56.285
7.37785	56.524
7.38215	56.764
7.38645	57.003
7.39074	57.243
7.39504	57.482
7.39934	57.722
7.40363	57.961
7.40793	60.456
7.41223	61.440
7.41652	61.680
7.42082	61.919
7.42512	62.159
7.42942	62.398
7.43371	62.638
7.43801	62.877
7.44231	63.117
7.44660	63.333
7.45090	62.838
7.45520	62.333
7.45949	61.896
7.46379	61.325
7.46809	60.138
7.47239	58.181
7.47668	58.652
7.48098	64.590
7.48528	64.738
7.48957	63.631
7.49387	62.453
7.49817	61.722
7.50246	60.874
7.50676	60.259
7.51106	59.294
7.51535	56.188
7.51965	56.427
7.52395	56.667
7.52825	56.906
7.53254	57.146
7.53684	57.385
7.54114	57.625
7.54543	57.864
7.54973	63.880
7.55403	65.343
7.55832	64.816
7.56262	63.707
7.56692	62.565
7.57121	61.621
7.57551	60.890
7.57981	60.780
7.58411	58.836
7.58840	56.770
7.59270	56.333
7.59700	55.828
7.60129	55.333
7.60559	54.887
7.60989	54.579
7.61418	54.811
7.61848	55.352
7.62278	55.492
7.62708	55.333
7.63137	55.333
7.63567	55.333
7.63997	55.333
7.64426	55.333
7.64856	55.333
7.65286	55.647
7.65715	57.576
7.66145	57.337
7.66575	57.097
7.67004	56.858
7.67434	56.618
7.67864	56.379
7.68294	55.945
7.68723	55.466
7.69153	53.841
7.69583	53.421
7.70012	53.181
7.70442	52.942
7.70872	52.702
7.71301	52.463
7.71731	52.223
7.72161	51.984
7.72590	51.485
7.73020	51.333
7.73450	51.333
7.73880	51.333
7.74309	51.333
7.74739	51.333
7.75169	51.359
7.75598	51.599
7.76028	52.630
7.76458	53.589
7.76887	53.350
7.77317	53.557
7.77747	53.796
7.78176	54.036
7.78606	54.275
7.79036	54.333
7.79466	54.663
7.79895	56.333
7.80325	56.333
7.80755	56.333
7.81184	56.333
7.81614	56.333
7.82044	56.333
7.82473	56.333
7.82903	56.333
7.83333	56.333
7.83763	56.333
7.84192	56.333
7.84622	56.333
7.85052	56.333
7.85481	56.333
7.85911	56.333
7.86341	56.333
7.86770	56.333
7.87200	56.333
7.87630	56.333
7.88059	56.544
7.88489	56.783
7.88919	57.023
7.89349	57.262
7.89778	57.333
7.90208	57.592
7.90638	57.686
7.91067	57.447
7.91497	57.333
7.91927	57.333
7.92356	57.333
7.92786	57.333
7.93216	57.417
7.93646	57.453
7.94075	56.896
7.94505	57.136
7.94935	57.333
7.95364	57.333
7.95794	57.333
7.96224	57.333
7.96653	57.333
